  9.1555528e-005
 -3.5401471e-003
 -4.8829615e-003
 -4.2725913e-003
 -4.5472579e-003
 -3.8758507e-003
 -4.1505173e-003
 -1.3733329e-003
 -3.0518509e-005
 -1.4038514e-003
 -2.1973327e-003
 -3.1128880e-003
 -3.4180731e-003
 -7.7211829e-003
 -6.1037019e-003
 -5.5238502e-003
 -4.7303690e-003
 -3.0213324e-003
 -3.6317026e-003
 -3.0823695e-003
 -3.0213324e-003
 -2.5940733e-003
 -2.6856288e-003
 -2.5635548e-003
 -1.2207404e-004
  7.9348125e-004
 -6.7140721e-004
 -1.3122959e-003
 -2.4719993e-003
 -2.6856288e-003
 -3.1128880e-003
 -2.5940733e-003
 -4.1505173e-003
 -6.1342204e-003
 -4.7608875e-003
 -3.7232582e-003
 -2.5330363e-003
 -2.1362957e-003
 -1.7395550e-003
 -1.9226661e-003
 -1.1902219e-003
  1.5564440e-003
  1.0986663e-003
 -2.4414808e-004
 -1.1597034e-003
 -1.8616291e-003
 -2.1057772e-003
 -2.1668142e-003
 -1.8921476e-003
 -4.2725913e-003
 -5.2186651e-003
 -3.5706656e-003
 -2.6856288e-003
 -1.4343699e-003
 -1.2207404e-003
 -1.2512589e-003
 -1.3428144e-003
  3.9674062e-004
  2.3499252e-003
  1.0071108e-003
  2.7466659e-004
 -6.4088870e-004
 -1.3122959e-003
 -1.4954070e-003
 -1.2207404e-003
 -1.7700735e-003
 -4.5472579e-003
 -3.9674062e-003
 -2.7161473e-003
 -1.8616291e-003
 -8.5451826e-004
 -7.3244423e-004
 -6.4088870e-004
 -7.9348125e-004
  2.0752586e-003
  2.7771844e-003
  1.3122959e-003
  4.8829615e-004
 -5.7985168e-004
 -8.8503677e-004
 -1.2207404e-003
 -6.4088870e-004
 -2.2583697e-003
 -4.2115543e-003
 -3.0518509e-003
 -1.8921476e-003
 -1.2512589e-003
  2.4414808e-004
 -2.6856288e-003
 -2.3499252e-003
  9.1555528e-004
  2.8077029e-003
  2.9297769e-003
  1.1597034e-003
  7.9348125e-004
 -3.6622211e-004
 -2.1362957e-004
 -7.0192572e-004
  9.1555528e-005
  6.7445906e-003
  9.2471084e-003
  1.0437330e-002
  1.0925626e-002
  1.8799402e-002
  2.2797327e-002
  2.2644734e-002
  2.1179846e-002
  2.8168585e-002
  3.5493027e-002
  3.3509325e-002
  3.1708732e-002
  3.1250954e-002
  3.5126805e-002
  3.4150213e-002
  3.3692434e-002
  3.3478804e-002
  3.3082064e-002
  3.3021029e-002
  3.3539843e-002
  3.4119695e-002
  3.7720878e-002
  3.7812434e-002
  3.7018951e-002
  3.5981324e-002
  3.9796136e-002
  4.0742211e-002
  3.7903991e-002
  3.6622211e-002
  3.4272287e-002
  3.3387251e-002
  3.1861324e-002
  3.1861324e-002
  2.8626362e-002
  2.4903104e-002
  2.5269326e-002
  2.5910215e-002
  2.4750512e-002
  2.2797327e-002
  2.1790216e-002
  2.1637624e-002
  1.9714957e-002
  1.7822810e-002
  1.5930662e-002
  1.4343699e-002
  1.2024293e-002
  5.0965911e-003
  3.1128880e-003
  2.7466659e-003
  2.5025178e-003
 -5.7069613e-003
 -8.9419233e-003
 -7.5991089e-003
 -6.7751091e-003
 -1.1322367e-002
 -1.5289773e-002
 -1.4648885e-002
 -1.4770959e-002
 -1.6663106e-002
 -1.9074069e-002
 -1.9867551e-002
 -2.0722069e-002
 -2.2339549e-002
 -2.7253030e-002
 -2.8504288e-002
 -2.8962066e-002
 -2.7802363e-002
 -2.7832881e-002
 -2.7832881e-002
 -2.7253030e-002
 -2.7344584e-002
 -2.9297769e-002
 -2.8901029e-002
 -2.8229622e-002
 -2.7222510e-002
 -2.3743400e-002
 -2.3407698e-002
 -2.4201179e-002
 -2.4445327e-002
 -2.5818659e-002
 -2.8687399e-002
 -2.8260140e-002
 -2.5330363e-002
 -2.7222510e-002
 -2.7863400e-002
 -2.4018068e-002
 -2.3987548e-002
 -2.3407698e-002
 -2.3102513e-002
 -2.2186957e-002
 -2.1790216e-002
 -1.9959105e-002
 -1.7090365e-002
 -1.7609181e-002
 -1.8341625e-002
 -1.8829921e-002
 -1.9531846e-002
 -2.1973327e-002
 -2.0355847e-002
 -1.8402662e-002
 -2.1332439e-002
 -1.9074069e-002
 -1.7029328e-002
 -1.7303996e-002
 -1.6296884e-002
 -1.6083255e-002
 -1.5289773e-002
 -1.5411847e-002
 -1.3336589e-002
 -1.0956145e-002
 -1.1993774e-002
 -1.2573626e-002
 -1.3214515e-002
 -1.3550218e-002
 -1.3641774e-002
 -1.3092441e-002
 -1.3702811e-002
 -1.6022218e-002
 -1.5381329e-002
 -1.3977477e-002
 -1.2695700e-002
 -1.1719108e-002
 -1.0986663e-002
 -1.0101627e-002
 -1.0315256e-002
 -7.5075533e-003
 -6.1647389e-003
 -7.8432569e-003
 -7.9348125e-003
 -1.2970367e-002
 -1.6998811e-002
 -1.6632589e-002
 -1.6144292e-002
 -1.9806514e-002
 -2.7283547e-002
 -2.4262216e-002
 -2.4445327e-002
 -2.0874660e-002
 -2.0447401e-002
 -1.7426070e-002
 -1.9745477e-002
 -1.2848292e-002
  1.0040590e-002
  1.4618366e-002
  1.2237922e-002
  1.5137181e-002
  5.9083834e-002
  7.2511978e-002
  7.2084717e-002
  6.9246501e-002
  1.2558366e-001
  1.5533921e-001
  1.5411848e-001
  1.4828944e-001
  1.9702750e-001
  2.4250008e-001
  2.3596911e-001
  2.3081149e-001
  2.5342572e-001
  2.9844052e-001
  2.8791162e-001
  2.8565326e-001
  2.7942747e-001
  2.9029205e-001
  2.8098392e-001
  2.7912229e-001
  2.6383251e-001
  2.2687460e-001
  2.1417890e-001
  2.1121861e-001
  2.0267342e-001
  1.3666189e-001
  1.1114841e-001
  1.0678426e-001
  1.0544145e-001
  3.7659843e-002
 -4.2115543e-003
 -6.5004425e-003
 -5.4322947e-003
 -5.4200873e-002
 -1.0431226e-001
 -1.0141300e-001
 -1.0092471e-001
 -1.1987671e-001
 -1.5900144e-001
 -1.5396588e-001
 -1.5338603e-001
 -1.5198217e-001
 -1.6406751e-001
 -1.6086306e-001
 -1.5961181e-001
 -1.5454574e-001
 -1.4377269e-001
 -1.3986632e-001
 -1.3882869e-001
 -1.3666189e-001
 -1.2845241e-001
 -1.2384411e-001
 -1.2143315e-001
 -1.1957152e-001
 -1.1090426e-001
 -1.0409863e-001
 -1.0065004e-001
 -9.8483227e-002
 -9.0182193e-002
 -8.2216866e-002
 -8.0874048e-002
 -7.9470202e-002
 -7.5685903e-002
 -6.9612719e-002
 -6.9856867e-002
 -6.9215983e-002
 -6.8727687e-002
 -6.6896573e-002
 -6.6042058e-002
 -6.4577170e-002
 -6.3570052e-002
 -6.4027831e-002
 -6.2440872e-002
 -5.9938353e-002
 -5.7954650e-002
 -5.6093022e-002
 -5.4963835e-002
 -5.3834651e-002
 -5.3163245e-002
 -4.8493911e-002
 -4.5686208e-002
 -4.6388134e-002
 -4.6235543e-002
 -4.6449173e-002
 -4.5899838e-002
 -4.5319986e-002
 -4.4007692e-002
 -4.3977171e-002
 -4.4434950e-002
 -4.2207099e-002
 -4.0650655e-002
 -3.8666952e-002
 -3.7537768e-002
 -3.6500137e-002
 -3.5920285e-002
 -3.4821618e-002
 -3.1250954e-002
 -3.0915251e-002
 -3.1373028e-002
 -3.1617176e-002
 -3.0671103e-002
 -2.9877622e-002
 -2.9450363e-002
 -2.8534807e-002
 -2.9602954e-002
 -2.9084140e-002
 -2.7039399e-002
 -2.5788141e-002
 -2.3285624e-002
 -2.1881772e-002
 -2.0935697e-002
 -2.0966217e-002
 -1.7822810e-002
 -1.3061922e-002
 -1.3672292e-002
 -1.4526810e-002
 -1.4770959e-002
 -1.3916440e-002
 -1.3733329e-002
 -1.3183996e-002
 -1.3153478e-002
 -1.4465773e-002
 -1.3428144e-002
 -1.1932737e-002
 -1.0742515e-002
 -7.3854793e-003
 -6.1037019e-003
 -5.6154057e-003
 -5.8900723e-003
 -2.2278512e-003
 -3.0518509e-004
 -1.6479995e-003
 -2.3499252e-003
 -1.9837031e-003
 -3.9674062e-004
 -7.6296274e-004
 -3.0518509e-005
 -9.1555528e-004
 -2.1362957e-003
 -7.3244423e-004
  1.8311106e-004
  1.7395550e-003
  4.6388134e-003
  5.2491836e-003
  5.0050355e-003
  5.6459242e-003
  9.4302194e-003
  9.3386639e-003
  8.0263680e-003
  7.2023682e-003
  7.1413312e-003
  7.2939238e-003
  7.1718497e-003
  7.2939238e-003
  5.6154057e-003
  5.2797021e-003
  6.6225166e-003
  7.2023682e-003
  8.7588122e-003
  9.9795526e-003
  1.0162664e-002
  9.5522935e-003
  1.1383404e-002
  1.4526810e-002
  1.3092441e-002
  1.1902219e-002
  1.1078219e-002
  1.1383404e-002
  1.1017182e-002
  1.0895108e-002
  1.0559404e-002
  8.6062197e-003
  9.0945158e-003
  1.0284738e-002
  1.0742515e-002
  1.3611255e-002
  1.4465773e-002
  1.4679403e-002
  1.3580737e-002
  2.0264290e-002
  2.4567401e-002
  2.2797327e-002
  2.1271402e-002
  2.2888882e-002
  2.6856288e-002
  2.6276438e-002
  2.5940733e-002
  2.5269326e-002
  2.5757622e-002
  2.6551103e-002
  2.6825771e-002
  2.8046511e-002
  3.1159399e-002
  3.1495102e-002
  3.0732140e-002
  3.0884732e-002
  3.7354656e-002
  3.7873469e-002
  3.5706658e-002
  3.4241769e-002
  3.6194954e-002
  3.7873469e-002
  3.6652729e-002
  3.6194954e-002
  3.4302805e-002
  3.4119695e-002
  3.4577470e-002
  3.4638509e-002
  3.5279397e-002
  3.5798211e-002
  3.5126805e-002
  3.4028139e-002
  3.5004731e-002
  3.7446212e-002
  3.5370953e-002
  3.3906065e-002
  3.1556141e-002
  2.7649770e-002
  2.6154364e-002
  2.5635548e-002
  2.4658956e-002
  1.8799402e-002
  1.7456587e-002
  1.8158514e-002
  1.8738365e-002
  1.6663106e-002
  1.5350810e-002
  1.4770959e-002
  1.4465773e-002
  1.3153478e-002
  1.0589923e-002
  8.3010346e-003
  7.8127384e-003
  3.2044435e-003
 -2.1057772e-003
 -3.0823695e-003
 -2.4414808e-003
 -5.8595538e-003
 -1.3763848e-002
 -1.3336589e-002
 -1.2024293e-002
 -1.2451552e-002
 -1.9592883e-002
 -2.3438215e-002
 -2.1301920e-002
 -2.0508438e-002
 -2.6459549e-002
 -2.9633474e-002
 -3.0793177e-002
 -3.0732140e-002
 -3.7995543e-002
 -4.2085025e-002
 -4.1535690e-002
 -4.0162358e-002
 -4.6479691e-002
 -5.1881466e-002
 -4.9439985e-002
 -4.7700431e-002
 -4.8402358e-002
 -5.2522354e-002
 -5.1179539e-002
 -5.0721765e-002
 -4.8677024e-002
 -4.8005614e-002
 -4.8585467e-002
 -4.8432875e-002
 -4.8371837e-002
 -4.8188727e-002
 -4.7364727e-002
 -4.6205025e-002
 -4.5655690e-002
 -4.7395244e-002
 -4.6266060e-002
 -4.3855097e-002
 -4.2085025e-002
 -4.0498063e-002
 -3.9399397e-002
 -3.8300730e-002
 -3.7598804e-002
 -3.4272287e-002
 -3.2288585e-002
 -3.3112582e-002
 -3.3021029e-002
 -3.3356730e-002
 -3.2959990e-002
 -3.2532733e-002
 -3.1373028e-002
 -3.1830806e-002
 -3.3631399e-002
 -3.1647693e-002
 -2.9725028e-002
 -2.8015992e-002
 -2.6978362e-002
 -2.5879696e-002
 -2.5421919e-002
 -2.4323253e-002
 -2.0935697e-002
 -2.0416884e-002
 -2.1027254e-002
 -2.1423994e-002
 -2.1759698e-002
 -2.1362957e-002
 -2.0844143e-002
 -2.0142216e-002
 -2.2003846e-002
 -2.2431105e-002
 -2.0294810e-002
 -1.8707847e-002
 -1.7395550e-002
 -1.6510515e-002
 -1.5564440e-002
 -1.5625477e-002
 -1.3428144e-002
 -1.0681478e-002
 -1.1597034e-002
 -1.1932737e-002
 -1.2573626e-002
 -1.2909329e-002
 -1.2665181e-002
 -1.2085330e-002
 -1.1810663e-002
 -1.4130070e-002
 -1.3672292e-002
 -1.1688589e-002
 -1.0345775e-002
 -9.2776269e-003
 -8.7282937e-003
 -8.0874050e-003
 -7.9042939e-003
 -4.9745170e-003
 -3.6011841e-003
 -4.7914060e-003
 -5.3102206e-003
 -6.1342204e-003
 -5.9816279e-003
 -6.0731834e-003
 -5.3407392e-003
 -6.2562944e-003
 -8.2399976e-003
 -7.1108127e-003
 -5.6764428e-003
 -4.0589618e-003
 -3.1739250e-003
 -2.5635548e-003
 -2.5025178e-003
 -1.7395550e-003
  1.3122959e-003
  1.2207404e-003
  1.2207404e-004
 -4.5777764e-004
 -1.2512589e-003
 -1.0681478e-003
 -8.8503677e-004
 -4.8829615e-004
 -2.5025178e-003
 -3.4791101e-003
 -1.7090365e-003
 -5.1881466e-004
  5.7985168e-004
  1.0376293e-003
  1.4954070e-003
  1.3122959e-003
  3.0518509e-003
  5.6459242e-003
  4.6082949e-003
  3.8758507e-003
  2.9297769e-003
  2.4414808e-003
  2.5025178e-003
  2.7161473e-003
  2.7466659e-003
  3.0518509e-005
  4.5777764e-004
  1.9837031e-003
  3.0213324e-003
  3.9063692e-003
  4.1810358e-003
  4.6998505e-003
  4.4251839e-003
  7.0802942e-003
  8.2705161e-003
  6.9277016e-003
  6.3173315e-003
  5.3407392e-003
  4.8524430e-003
  4.7608875e-003
  5.3102206e-003
  4.0589618e-003
  1.9837031e-003
  3.2349620e-003
  4.3336283e-003
  5.4017762e-003
  6.1037019e-003
  6.4699240e-003
  6.5004425e-003
  6.9887387e-003
  9.9795526e-003
  9.7659230e-003
  8.3620716e-003
  7.7517014e-003
  6.8666646e-003
  6.5614795e-003
  6.5004425e-003
  6.9582202e-003
  4.5777764e-003
  3.5706656e-003
  5.1271096e-003
  6.1952574e-003
  7.3854793e-003
  7.5075533e-003
  8.0263680e-003
  7.6906644e-003
  8.9419233e-003
  1.1322367e-002
  1.0376293e-002
  9.3691824e-003
  8.4231086e-003
  7.8737754e-003
  7.6601459e-003
  7.7211829e-003
  7.5991089e-003
  5.0050355e-003
  5.0660726e-003
  6.4699240e-003
  7.5685903e-003
  8.2094790e-003
  8.4841456e-003
  8.7893307e-003
  8.3315531e-003
  1.0803552e-002
  1.2176885e-002
  1.0345775e-002
  9.2776269e-003
  8.2705161e-003
  7.9958495e-003
  7.9348125e-003
  8.6062197e-003
  7.1108127e-003
  5.0355541e-003
  6.2257759e-003
  7.0802942e-003
  8.1789605e-003
  8.6977752e-003
  9.2165899e-003
  8.9724418e-003
  9.2776269e-003
  1.2207404e-002
  1.2146367e-002
  1.0559404e-002
  9.6743675e-003
  8.9114048e-003
  8.5451826e-003
  8.3315531e-003
  8.7588122e-003
  6.3783685e-003
  5.2797021e-003
  6.7445906e-003
  7.5075533e-003
  8.6977752e-003
  8.9419233e-003
  9.1250343e-003
  8.7282937e-003
  1.0071108e-002
  1.2604144e-002
  1.1383404e-002
  1.0345775e-002
  9.2471084e-003
  8.5757012e-003
  8.3010346e-003
  8.3620716e-003
  8.1179235e-003
  5.4017762e-003
  5.6154057e-003
  6.8361461e-003
  7.8432569e-003
  8.4231086e-003
  8.8198492e-003
  9.0334788e-003
  8.5757012e-003
  1.0956145e-002
  1.2207404e-002
  1.0650960e-002
  9.8879971e-003
  8.8198492e-003
  8.2705161e-003
  7.9348125e-003
  8.3010346e-003
  7.0497757e-003
  4.7608875e-003
  5.7374798e-003
  6.7751091e-003
  7.8432569e-003
  8.2399976e-003
  8.5757012e-003
  8.3925901e-003
  8.8198492e-003
  1.1566515e-002
  1.1261330e-002
  9.8879971e-003
  9.2776269e-003
  8.1484420e-003
  7.8127384e-003
  7.5991089e-003
  7.9348125e-003
  5.5543687e-003
  4.3641469e-003
  5.8595538e-003
  6.5309610e-003
  7.6601459e-003
  7.7822199e-003
  8.1789605e-003
  7.7822199e-003
  9.0945158e-003
  1.1383404e-002
  1.0437330e-002
  9.1250343e-003
  8.3010346e-003
  7.4159978e-003
  7.1718497e-003
  7.4465163e-003
  6.9887387e-003
  4.3641469e-003
  4.4862209e-003
  5.6154057e-003
  6.3783685e-003
  7.2634052e-003
  7.5991089e-003
  7.6601459e-003
  7.2939238e-003
  9.6133305e-003
  1.0773034e-002
  9.2165899e-003
  8.3620716e-003
  7.1718497e-003
  6.8361461e-003
  6.5919980e-003
  6.8971831e-003
  5.6154057e-003
  3.1434065e-003
  4.3336283e-003
  5.4933317e-003
  6.3783685e-003
  6.5919980e-003
  7.1108127e-003
  6.8056276e-003
  7.0497757e-003
  9.9490341e-003
  9.6438490e-003
  8.4231086e-003
  7.4465163e-003
  6.4394055e-003
  6.2868129e-003
  5.9205908e-003
  6.2562944e-003
  4.1199988e-003
  2.8077029e-003
  4.2725913e-003
  5.0050355e-003
  6.0121464e-003
  6.1342204e-003
  6.5919980e-003
  6.1037019e-003
  7.4159978e-003
  9.7659230e-003
  8.5451826e-003
  7.4465163e-003
  6.2562944e-003
  5.8290353e-003
  5.3712577e-003
  5.5848872e-003
  5.3407392e-003
  2.5025178e-003
  2.5940733e-003
  3.8758507e-003
  4.6693319e-003
  5.4017762e-003
  5.8290353e-003
  5.8595538e-003
  5.5848872e-003
  7.9653310e-003
  9.2471084e-003
  7.3854793e-003
  6.6225166e-003
  5.6764428e-003
  5.1271096e-003
  4.8524430e-003
  5.3102206e-003
  3.8453322e-003
  1.4343699e-003
  2.5635548e-003
  3.5706656e-003
  4.6082949e-003
  4.8524430e-003
  5.1576281e-003
  5.0965911e-003
  5.2491836e-003
  8.3010346e-003
  7.9348125e-003
  6.6835536e-003
  5.5848872e-003
  4.8829615e-003
  4.1199988e-003
  4.6388134e-003
  3.7537767e-003
  5.0355541e-003
  1.2543107e-002
  1.5137181e-002
  1.5503403e-002
  1.7517624e-002
  2.5391400e-002
  2.7466659e-002
  2.6337475e-002
  2.7527696e-002
  3.6896877e-002
  3.8697470e-002
  3.6774803e-002
  3.5035249e-002
  3.7171546e-002
  3.9185766e-002
  3.7873469e-002
  3.7110507e-002
  3.5431989e-002
  3.7568286e-002
  3.7812434e-002
  3.7842952e-002
  3.9307840e-002
  4.1749321e-002
  4.1230507e-002
  3.9979249e-002
  4.1993469e-002
  4.4648580e-002
  4.2420730e-002
  4.0559098e-002
  3.8727988e-002
  3.7293620e-002
  3.6042359e-002
  3.5462510e-002
  3.3570360e-002
  2.9297769e-002
  2.8962066e-002
  2.9114658e-002
  2.9694511e-002
  2.7344584e-002
  2.5696585e-002
  2.4445327e-002
  2.4719993e-002
  2.3560289e-002
  1.9775994e-002
  1.7426070e-002
  1.6663106e-002
  1.2268441e-002
  6.8361461e-003
  5.5238502e-003
  5.8595538e-003
  1.8005921e-003
 -5.5543687e-003
 -5.0355541e-003
 -4.2725913e-003
 -4.1810358e-003
 -1.0711997e-002
 -1.2482070e-002
 -1.2512589e-002
 -1.1352886e-002
 -1.3916440e-002
 -1.7700735e-002
 -1.8280588e-002
 -1.8982513e-002
 -2.1851253e-002
 -2.4231697e-002
 -2.3560289e-002
 -2.3377178e-002
 -2.7069919e-002
 -2.8748436e-002
 -2.6795251e-002
 -2.5605030e-002
 -2.5299845e-002
 -2.6795251e-002
 -2.6184881e-002
 -2.6215401e-002
 -2.3255104e-002
 -2.1485031e-002
 -2.2614216e-002
 -2.3010956e-002
 -2.3682363e-002
 -2.4689475e-002
 -2.5055697e-002
 -2.4079105e-002
 -2.4933623e-002
 -2.6856288e-002
 -2.5299845e-002
 -2.3682363e-002
 -2.2339549e-002
 -2.1485031e-002
 -2.0630512e-002
 -2.0294810e-002
 -1.9684440e-002
 -1.6602069e-002
 -1.6235847e-002
 -1.7334513e-002
 -1.7578661e-002
 -1.8066958e-002
 -1.8005921e-002
 -1.7975403e-002
 -1.7303996e-002
 -1.9165624e-002
 -2.0111699e-002
 -1.8127995e-002
 -1.7120885e-002
 -1.5778070e-002
 -1.5259255e-002
 -1.4435255e-002
 -1.4526810e-002
 -1.2970367e-002
 -1.0040590e-002
 -1.1108737e-002
 -1.1688589e-002
 -1.2298959e-002
 -1.2970367e-002
 -1.2695700e-002
 -1.2421033e-002
 -1.2237922e-002
 -1.4709922e-002
 -1.4557329e-002
 -1.2787255e-002
 -1.1597034e-002
 -1.0681478e-002
 -1.0193182e-002
 -9.7048860e-003
 -9.8879971e-003
 -7.4159978e-003
 -5.7069613e-003
 -7.2023682e-003
 -7.4465163e-003
 -8.9114048e-003
 -1.4404736e-002
 -1.6571552e-002
 -1.5655996e-002
 -1.6937774e-002
 -2.3041476e-002
 -2.5788141e-002
 -2.2492142e-002
 -2.3071993e-002
 -1.8982513e-002
 -1.9928588e-002
 -1.6296884e-002
 -2.0081179e-002
 -2.5635548e-003
  1.1963256e-002
  1.5503403e-002
  9.0639973e-003
  2.6184881e-002
  6.7232274e-002
  7.3641166e-002
  6.9246501e-002
  7.8524128e-002
  1.4111759e-001
  1.5643787e-001
  1.5317240e-001
  1.5515611e-001
  2.1774957e-001
  2.4253060e-001
  2.3468734e-001
  2.3242897e-001
  2.7118748e-001
  2.9844052e-001
  2.8547013e-001
  2.8373060e-001
  2.8037354e-001
  2.9111606e-001
  2.7756584e-001
  2.8000733e-001
  2.4973296e-001
  2.2305979e-001
  2.1152379e-001
  2.1445356e-001
  1.8671224e-001
  1.2359996e-001
  1.0907315e-001
  1.0852382e-001
  9.4943084e-002
  1.7578661e-002
 -6.1647389e-003
 -6.6530351e-003
 -1.2054811e-002
 -7.5594351e-002
 -1.0510575e-001
 -1.0113834e-001
 -1.0260323e-001
 -1.3489181e-001
 -1.5964232e-001
 -1.5219581e-001
 -1.5210426e-001
 -1.5445417e-001
 -1.6528825e-001
 -1.5952025e-001
 -1.5961181e-001
 -1.4889981e-001
 -1.4294870e-001
 -1.3986632e-001
 -1.3956115e-001
 -1.3510545e-001
 -1.2671286e-001
 -1.2320323e-001
 -1.2118900e-001
 -1.1954100e-001
 -1.0873745e-001
 -1.0226753e-001
 -9.9765010e-002
 -9.6469007e-002
 -8.7313458e-002
 -8.1545457e-002
 -8.0874048e-002
 -7.7913754e-002
 -7.2420426e-002
 -7.0436724e-002
 -7.0589311e-002
 -6.9978945e-002
 -6.8971835e-002
 -6.7049168e-002
 -6.6042058e-002
 -6.4882353e-002
 -6.5706350e-002
 -6.3722648e-002
 -6.1311685e-002
 -5.9114352e-002
 -5.7344280e-002
 -5.6031983e-002
 -5.4811243e-002
 -5.4017764e-002
 -5.0721765e-002
 -4.7059543e-002
 -4.7181617e-002
 -4.6937469e-002
 -4.7212135e-002
 -4.6784874e-002
 -4.6143986e-002
 -4.4892728e-002
 -4.5167394e-002
 -4.5991395e-002
 -4.3244727e-002
 -4.1383099e-002
 -3.9704580e-002
 -3.8605914e-002
 -3.7354656e-002
 -3.6744285e-002
 -3.5859250e-002
 -3.2166511e-002
 -3.1586658e-002
 -3.2135990e-002
 -3.2471694e-002
 -3.2532733e-002
 -3.0945769e-002
 -3.0365918e-002
 -2.9389326e-002
 -3.0854214e-002
 -3.0487992e-002
 -2.8077029e-002
 -2.6551103e-002
 -2.4964141e-002
 -2.3285624e-002
 -2.1851253e-002
 -2.1454513e-002
 -2.0142216e-002
 -1.5106662e-002
 -1.6418958e-002
 -1.6937774e-002
 -1.6022218e-002
 -1.5564440e-002
 -1.4435255e-002
 -1.3885922e-002
 -1.3611255e-002
 -1.5808588e-002
 -1.4465773e-002
 -1.2512589e-002
 -1.1566515e-002
 -9.9185156e-003
 -7.0497757e-003
 -6.4088870e-003
 -6.4394055e-003
 -3.7842952e-003
 -1.0681478e-003
 -2.1668142e-003
 -2.6551103e-003
 -3.7232582e-003
 -2.1973327e-003
 -9.7659230e-004
 -6.1037019e-004
 -1.6479995e-003
 -3.2654805e-003
 -1.7395550e-003
 -3.6622211e-004
  6.4088870e-004
  2.2888882e-003
  4.6388134e-003
  4.5167394e-003
  4.6998505e-003
  7.9042939e-003
  8.9419233e-003
  7.5685903e-003
  6.6530351e-003
  5.7374798e-003
  6.5614795e-003
  6.4394055e-003
  6.8971831e-003
  4.8219245e-003
  4.3946654e-003
  5.9205908e-003
  6.8056276e-003
  7.6296274e-003
  8.7282937e-003
  9.6438490e-003
  8.9419233e-003
  1.0101627e-002
  1.3306070e-002
  1.2756737e-002
  1.1566515e-002
  1.0345775e-002
  9.9795526e-003
  1.0589923e-002
  1.0498367e-002
  1.0071108e-002
  7.6601459e-003
  8.3010346e-003
  9.7048860e-003
  1.0254219e-002
  1.1413923e-002
  1.3580737e-002
  1.4191107e-002
  1.3428144e-002
  1.5564440e-002
  2.2461623e-002
  2.2583697e-002
  2.1393476e-002
  1.9775994e-002
  2.3651846e-002
  2.6123844e-002
  2.5727104e-002
  2.4018068e-002
  2.3285624e-002
  2.6429029e-002
  2.6825771e-002
  2.6978362e-002
  2.8595844e-002
  3.1159399e-002
  3.0762658e-002
  2.9908139e-002
  3.3509325e-002
  3.7354656e-002
  3.5493027e-002
  3.4119695e-002
  3.2959990e-002
  3.6591694e-002
  3.6713768e-002
  3.6103398e-002
  3.3478804e-002
  3.2929473e-002
  3.4669027e-002
  3.4638509e-002
  3.4882657e-002
  3.5157323e-002
  3.5340436e-002
  3.3906065e-002
  3.4485918e-002
  3.6591694e-002
  3.5950806e-002
  3.3417769e-002
  3.2288585e-002
  2.9297769e-002
  2.6520586e-002
  2.5330363e-002
  2.4811549e-002
  2.0722069e-002
  1.7578661e-002
  1.8189032e-002
  1.8402662e-002
  1.8280588e-002
  1.5655996e-002
  1.4831996e-002
  1.3824885e-002
  1.5503403e-002
  1.2115848e-002
  8.3010346e-003
  6.9277016e-003
  5.8900723e-003
  4.5777764e-004
 -3.2654805e-003
 -3.6622211e-003
 -4.1199988e-003
 -1.0742515e-002
 -1.3946959e-002
 -1.3306070e-002
 -1.1658071e-002
 -1.4587848e-002
 -2.1423994e-002
 -2.1973327e-002
 -2.1057772e-002
 -2.0661032e-002
 -2.9145177e-002
 -3.1739250e-002
 -3.1678215e-002
 -3.3204138e-002
 -4.0925320e-002
 -4.3061618e-002
 -4.1688286e-002
 -4.3244727e-002
 -5.0141912e-002
 -5.1210061e-002
 -4.9134802e-002
 -4.7334209e-002
 -5.0355542e-002
 -5.2980132e-002
 -5.1973023e-002
 -5.0080873e-002
 -4.7639392e-002
 -4.9989320e-002
 -4.9684133e-002
 -4.9958799e-002
 -4.9439985e-002
 -4.8829615e-002
 -4.7853023e-002
 -4.6754356e-002
 -4.8402358e-002
 -4.7853023e-002
 -4.5564134e-002
 -4.3488875e-002
 -4.1688286e-002
 -4.0650655e-002
 -3.9521471e-002
 -3.9155249e-002
 -3.5889767e-002
 -3.3509325e-002
 -3.4424879e-002
 -3.4150213e-002
 -3.4394361e-002
 -3.4302805e-002
 -3.3692434e-002
 -3.2563251e-002
 -3.2868434e-002
 -3.4730066e-002
 -3.2990508e-002
 -3.1128880e-002
 -2.9358806e-002
 -2.8168585e-002
 -2.7100436e-002
 -2.6551103e-002
 -2.5818659e-002
 -2.2309031e-002
 -2.1607105e-002
 -2.2522660e-002
 -2.2400586e-002
 -2.2888882e-002
 -2.2370068e-002
 -2.2064883e-002
 -2.1210365e-002
 -2.2522660e-002
 -2.3499252e-002
 -2.1576587e-002
 -2.0020142e-002
 -1.8463699e-002
 -1.7731255e-002
 -1.6693626e-002
 -1.6541032e-002
 -1.4893033e-002
 -1.1841182e-002
 -1.2329478e-002
 -1.3092441e-002
 -1.3519700e-002
 -1.3702811e-002
 -1.3458663e-002
 -1.3000885e-002
 -1.2726218e-002
 -1.4923551e-002
 -1.4679403e-002
 -1.2878811e-002
 -1.1352886e-002
 -1.0132145e-002
 -9.5828120e-003
 -8.9419233e-003
 -9.0639973e-003
 -6.4394055e-003
 -4.4862209e-003
 -5.6154057e-003
 -6.0426649e-003
 -6.8361461e-003
 -7.0802942e-003
 -6.7140721e-003
 -6.1037019e-003
 -6.8056276e-003
 -8.9724418e-003
 -7.8432569e-003
 -6.2868129e-003
 -5.0355541e-003
 -4.1199988e-003
 -3.5706656e-003
 -3.2654805e-003
 -2.8077029e-003
  2.1362957e-004
  6.4088870e-004
 -6.4088870e-004
 -1.0681478e-003
 -2.0142216e-003
 -1.8005921e-003
 -1.8616291e-003
 -1.1597034e-003
 -2.9602954e-003
 -4.3031098e-003
 -2.5940733e-003
 -1.5564440e-003
 -2.4414808e-004
  2.7466659e-004
  8.8503677e-004
  6.4088870e-004
  2.1057772e-003
  4.8829615e-003
  4.0284432e-003
  2.9908139e-003
  2.4414808e-003
  1.7700735e-003
  1.7090365e-003
  1.9226661e-003
  2.1057772e-003
 -4.8829615e-004
 -7.0192572e-004
  1.0986663e-003
  2.1362957e-003
  3.1128880e-003
  3.4791101e-003
  3.9063692e-003
  3.7232582e-003
  6.1647389e-003
  7.8737754e-003
  6.3478500e-003
  5.6764428e-003
  4.5167394e-003
  4.5167394e-003
  4.1810358e-003
  4.5472579e-003
  4.0284432e-003
  1.5259255e-003
  2.2278512e-003
  3.0518509e-003
  4.5472579e-003
  4.9745170e-003
  5.6154057e-003
  6.0426649e-003
  6.2562944e-003
  9.0334788e-003
  9.2471084e-003
  7.9653310e-003
  7.3549608e-003
  6.4088870e-003
  6.1342204e-003
  5.8900723e-003
  6.3478500e-003
  4.5777764e-003
  3.1128880e-003
  4.5167394e-003
  5.4933317e-003
  6.6530351e-003
  6.9582202e-003
  7.4159978e-003
  7.1718497e-003
  8.2094790e-003
  1.0773034e-002
  1.0071108e-002
  8.9114048e-003
  8.1179235e-003
  7.3244423e-003
  7.2939238e-003
  7.2023682e-003
  7.4159978e-003
  4.6998505e-003
  4.4557024e-003
  5.9511093e-003
  6.8056276e-003
  7.6906644e-003
  7.8432569e-003
  8.4536271e-003
  7.7211829e-003
  9.9185156e-003
  1.1658071e-002
  1.0132145e-002
  9.5217749e-003
  8.3010346e-003
  8.0568865e-003
  7.5991089e-003
  7.9653310e-003
  7.3244423e-003
  4.5167394e-003
  5.5238502e-003
  6.5919980e-003
  7.5075533e-003
  8.2705161e-003
  8.5146641e-003
  8.5146641e-003
  8.6367382e-003
  1.1413923e-002
  1.1627552e-002
  1.0132145e-002
  9.3081454e-003
  8.1789605e-003
  8.1789605e-003
  7.8737754e-003
  8.3315531e-003
  6.5004425e-003
  4.6082949e-003
  5.9816279e-003
  6.9582202e-003
  8.0568865e-003
  8.4231086e-003
  8.7893307e-003
  8.4231086e-003
  9.5217749e-003
  1.1963256e-002
  1.1047700e-002
  1.0010071e-002
  9.0945158e-003
  8.0874050e-003
  7.9958495e-003
  7.9653310e-003
  7.9653310e-003
  5.2186651e-003
  4.9134800e-003
  6.4394055e-003
  7.2939238e-003
  8.2094790e-003
  8.1789605e-003
  8.5757012e-003
  8.0568865e-003
  1.0254219e-002
  1.1841182e-002
  1.0345775e-002
  9.4302194e-003
  8.3315531e-003
  7.9348125e-003
  7.5075533e-003
  7.8432569e-003
  6.9277016e-003
  4.3336283e-003
  5.1271096e-003
  6.3173315e-003
  7.3854793e-003
  7.9348125e-003
  8.1179235e-003
  8.1179235e-003
  8.1789605e-003
  1.0742515e-002
  1.1108737e-002
  9.7048860e-003
  8.9114048e-003
  7.8127384e-003
  7.5075533e-003
  7.2634052e-003
  7.5075533e-003
  5.6154057e-003
  3.8758507e-003
  5.2186651e-003
  6.1952574e-003
  7.2634052e-003
  7.5075533e-003
  7.9348125e-003
  7.6601459e-003
  8.3010346e-003
  1.1047700e-002
  1.0101627e-002
  9.0029603e-003
  8.0263680e-003
  7.1108127e-003
  6.9887387e-003
  6.6530351e-003
  6.7751091e-003
  4.0894803e-003
  3.6011841e-003
  5.2797021e-003
  6.0121464e-003
  6.8666646e-003
  7.2023682e-003
  7.3854793e-003
  6.9887387e-003
  8.9114048e-003
  1.0650960e-002
  9.1250343e-003
  8.3315531e-003
  7.0802942e-003
  6.3783685e-003
  6.1952574e-003
  6.4699240e-003
  5.7069613e-003
  2.9908139e-003
  3.7842952e-003
  4.9134800e-003
  5.6764428e-003
  6.4088870e-003
  6.6530351e-003
  6.7445906e-003
  6.8056276e-003
  9.3081454e-003
  9.7048860e-003
  8.2094790e-003
  7.3854793e-003
  6.2257759e-003
  5.8900723e-003
  5.6459242e-003
  6.1952574e-003
  4.0284432e-003
  2.4719993e-003
  3.7537767e-003
  4.4557024e-003
  5.5848872e-003
  5.9816279e-003
  6.0731834e-003
  5.7069613e-003
  6.8971831e-003
  9.4607379e-003
  8.6672567e-003
  7.1718497e-003
  6.5919980e-003
  5.3102206e-003
  5.7679983e-003
  1.0376293e-003
  3.3570360e-003
  3.3570360e-003
  1.6174810e-003
  3.7842952e-003
  4.1505173e-003
  5.5238502e-003
  5.3712577e-003
  5.7985168e-003
  5.0660726e-003
  7.5075533e-003
  9.0029603e-003
  7.5380718e-003
  6.5614795e-003
  5.5238502e-003
  5.0050355e-003
  4.5777764e-003
  4.9439985e-003
  3.9063692e-003
  1.4038514e-003
  2.2888882e-003
  3.3265175e-003
  4.1199988e-003
  4.7608875e-003
  5.1271096e-003
  5.0660726e-003
  5.0660726e-003
  7.6296274e-003
  8.0263680e-003
  6.3173315e-003
  6.1037019e-003
  4.4862209e-003
  4.5167394e-003
  3.6927396e-003
  4.8829615e-003
  1.6479995e-003
  6.1647389e-003
  1.4435255e-002
  1.5717033e-002
  1.5869625e-002
  1.9562365e-002
  2.6795251e-002
  2.6703697e-002
  2.7039399e-002
  3.0915251e-002
  3.7568286e-002
  3.7049472e-002
  3.5615101e-002
  3.4485918e-002
  3.7934508e-002
  3.8483839e-002
  3.7690360e-002
  3.4516435e-002
  3.5981324e-002
  3.8392287e-002
  3.8361765e-002
  3.8239691e-002
  4.0101323e-002
  4.1871395e-002
  4.0345471e-002
  4.1444138e-002
  4.3244727e-002
  4.3122653e-002
  4.0833768e-002
  3.9307840e-002
  3.7720878e-002
  3.6591694e-002
  3.5950806e-002
  3.4394361e-002
  3.0732140e-002
  2.9450363e-002
  2.9541917e-002
  2.9663991e-002
  2.9206214e-002
  2.6734214e-002
  2.5116734e-002
  2.3987548e-002
  2.6032289e-002
  2.1515550e-002
  1.7395550e-002
  1.6022218e-002
  1.4831996e-002
  9.7048860e-003
  5.3407392e-003
  5.2491836e-003
  3.4791101e-003
 -1.8616291e-003
 -5.3407392e-003
 -4.8524430e-003
 -3.4485916e-003
 -6.0121464e-003
 -1.2085330e-002
 -1.3214515e-002
 -1.1963256e-002
 -1.0254219e-002
 -1.6693626e-002
 -1.8585773e-002
 -1.8951995e-002
 -2.0020142e-002
 -2.3133030e-002
 -2.4109622e-002
 -2.3438215e-002
 -2.5879696e-002
 -2.7954955e-002
 -2.7466659e-002
 -2.6154364e-002
 -2.4903104e-002
 -2.5666067e-002
 -2.6673177e-002
 -2.6581623e-002
 -2.4140142e-002
 -2.1729179e-002
 -2.3102513e-002
 -2.3377178e-002
 -2.3895994e-002
 -2.4323253e-002
 -2.5147252e-002
 -2.4689475e-002
 -2.4903104e-002
 -2.7222510e-002
 -2.6093327e-002
 -2.4292734e-002
 -2.2919402e-002
 -2.1790216e-002
 -2.1057772e-002
 -2.0691549e-002
 -2.0264290e-002
 -1.7273476e-002
 -1.6449478e-002
 -1.7639698e-002
 -1.7883847e-002
 -1.8585773e-002
 -1.8524736e-002
 -1.8372143e-002
 -1.7578661e-002
 -1.9013032e-002
 -2.0599995e-002
 -1.8768884e-002
 -1.7487107e-002
 -1.6144292e-002
 -1.5442366e-002
 -1.4679403e-002
 -1.4831996e-002
 -1.3763848e-002
 -1.0620441e-002
 -1.1200293e-002
 -1.1932737e-002
 -1.2634663e-002
 -1.3092441e-002
 -1.3061922e-002
 -1.2878811e-002
 -1.2512589e-002
 -1.4770959e-002
 -1.5045625e-002
 -1.3306070e-002
 -1.2237922e-002
 -1.0925626e-002
 -1.0437330e-002
 -9.8574786e-003
 -1.0132145e-002
 -7.9042939e-003
 -6.0121464e-003
 -6.9277016e-003
 -7.8737754e-003
 -8.2705161e-003
 -1.0437330e-002
 -1.5991699e-002
 -1.6296884e-002
 -1.6510515e-002
 -1.9684440e-002
 -2.4292734e-002
 -2.4292734e-002
 -2.2278512e-002
 -2.1912290e-002
 -1.8768884e-002
 -1.9531846e-002
 -1.6479995e-002
 -1.6937774e-002
  3.9368877e-003
  1.1474960e-002
  1.5076144e-002
  6.8666646e-003
  4.0101323e-002
  7.0833459e-002
  7.4556716e-002
  6.4546645e-002
  9.4302192e-002
  1.5234840e-001
  1.5637684e-001
  1.5091403e-001
  1.6800439e-001
  2.3337504e-001
  2.3932615e-001
  2.3429060e-001
  2.3908201e-001
  2.8479874e-001
  2.9395428e-001
  2.8449354e-001
  2.8049561e-001
  2.8403577e-001
  2.8846094e-001
  2.7661976e-001
  2.7445295e-001
  2.3807490e-001
  2.2104557e-001
  2.1018097e-001
  2.1521653e-001
  1.6602069e-001
  1.1618397e-001
  1.0675374e-001
  1.1239967e-001
  7.5594351e-002
  2.1668142e-003
 -6.6530351e-003
 -6.5614795e-003
 -2.5208289e-002
 -9.2684716e-002
 -1.0306101e-001
 -1.0235908e-001
 -1.0864589e-001
 -1.4664143e-001
 -1.5707877e-001
 -1.5195166e-001
 -1.5076144e-001
 -1.5848263e-001
 -1.6440322e-001
 -1.5894040e-001
 -1.5622425e-001
 -1.4630574e-001
 -1.4334545e-001
 -1.3974425e-001
 -1.3995789e-001
 -1.3245033e-001
 -1.2594989e-001
 -1.2210456e-001
 -1.2289803e-001
 -1.1767937e-001
 -1.0504471e-001
 -1.0122990e-001
 -9.8666340e-002
 -9.4698936e-002
 -8.4597312e-002
 -8.1911683e-002
 -7.9500720e-002
 -7.5106055e-002
 -7.2328866e-002
 -7.1504869e-002
 -7.1016572e-002
 -7.0467241e-002
 -6.8666644e-002
 -6.6713460e-002
 -6.5645315e-002
 -6.7079686e-002
 -6.5675832e-002
 -6.2288277e-002
 -6.0457166e-002
 -5.8412429e-002
 -5.7039093e-002
 -5.5574205e-002
 -5.4994356e-002
 -5.2156132e-002
 -4.8799098e-002
 -4.7791988e-002
 -4.7914062e-002
 -4.7914062e-002
 -4.7517318e-002
 -4.6754356e-002
 -4.5960877e-002
 -4.6052430e-002
 -4.7639392e-002
 -4.5136876e-002
 -4.2695396e-002
 -4.0925320e-002
 -3.9490953e-002
 -3.8483839e-002
 -3.7598804e-002
 -3.7110507e-002
 -3.3448286e-002
 -3.1830806e-002
 -3.2807399e-002
 -3.2654807e-002
 -3.3387251e-002
 -3.2410659e-002
 -3.0945769e-002
 -2.9725028e-002
 -3.1037325e-002
 -3.1800289e-002
 -2.8870510e-002
 -2.7222510e-002
 -2.5666067e-002
 -2.4567401e-002
 -2.2492142e-002
 -2.1881772e-002
 -2.0752586e-002
 -1.7334513e-002
 -1.5503403e-002
 -1.5289773e-002
 -1.5900144e-002
 -1.6541032e-002
 -1.5167699e-002
 -1.4313181e-002
 -1.3885922e-002
 -1.6052736e-002
 -1.5655996e-002
 -1.3183996e-002
 -1.1780145e-002
 -1.0803552e-002
 -9.1860713e-003
 -6.6225166e-003
 -6.8056276e-003
 -4.7303690e-003
 -2.0752586e-003
 -2.4109622e-003
 -2.8992584e-003
 -3.9674062e-003
 -3.9674062e-003
 -1.9226661e-003
 -9.4607379e-004
 -1.6174810e-003
 -3.9979247e-003
 -2.3499252e-003
 -7.3244423e-004
  4.8829615e-004
  1.0071108e-003
  3.3570360e-003
  4.6388134e-003
  4.5777764e-003
  7.2023682e-003
  8.5146641e-003
  7.6601459e-003
  6.8056276e-003
  5.4628132e-003
  5.8900723e-003
  6.5919980e-003
  6.8361461e-003
  4.9439985e-003
  3.2959990e-003
  5.6459242e-003
  6.5919980e-003
  7.6601459e-003
  7.9042939e-003
  9.3081454e-003
  9.1250343e-003
  9.7048860e-003
  1.2390515e-002
  1.2695700e-002
  1.1627552e-002
  1.0742515e-002
  9.5828120e-003
  9.9490341e-003
  1.0315256e-002
  1.0406812e-002
  7.5075533e-003
  7.5991089e-003
  9.4607379e-003
  1.0437330e-002
  1.0650960e-002
  1.1963256e-002
  1.3855403e-002
  1.3641774e-002
  1.4740440e-002
  1.8066958e-002
  2.2034364e-002
  2.1637624e-002
  1.9989625e-002
  1.9928588e-002
  2.4811549e-002
  2.6032289e-002
  2.4781030e-002
  2.1790216e-002
  2.4964141e-002
  2.6978362e-002
  2.7283547e-002
  2.7039399e-002
  2.9511400e-002
  3.1189917e-002
  3.0274361e-002
  3.2105472e-002
  3.4913175e-002
  3.6103398e-002
  3.4791101e-002
  3.2563251e-002
  3.3448286e-002
  3.6805324e-002
  3.6591694e-002
  3.4058657e-002
  3.1830806e-002
  3.4699544e-002
  3.4974214e-002
  3.5157323e-002
  3.4791101e-002
  3.5279397e-002
  3.4577470e-002
  3.4516435e-002
  3.6561176e-002
  3.5859250e-002
  3.4577470e-002
  3.2593768e-002
  3.1098362e-002
  2.8107548e-002
  2.6062807e-002
  2.5147252e-002
  2.2125920e-002
  1.9287698e-002
  1.8463699e-002
  1.8433180e-002
  1.9135106e-002
  1.7609181e-002
  1.5320292e-002
  1.3855403e-002
  1.5503403e-002
  1.5503403e-002
  9.3997009e-003
  7.2634052e-003
  5.9816279e-003
  4.5472579e-003
 -1.7700735e-003
 -3.5706656e-003
 -4.1199988e-003
 -6.9887387e-003
 -1.1963256e-002
 -1.3000885e-002
 -1.2512589e-002
 -1.1108737e-002
 -1.6907254e-002
 -2.1973327e-002
 -2.2125920e-002
 -1.8189032e-002
 -2.2949919e-002
 -3.1678215e-002
 -3.2105472e-002
 -3.2471694e-002
 -3.5157323e-002
 -4.2512283e-002
 -4.2176582e-002
 -4.3092135e-002
 0